MEMORY_INITIALIZATION_RADIX=16;
MEMORY_INITIALIZATION_VECTOR=
9a,
9d,
a1,
a4,
a6,
a8,
aa,
ad,
aa,
b4,
b1,
be,
bb,
ad,
c2,
b2,
ad,
b9,
b7,
b1,
b4,
b2,
ab,
ac,
a7,
a6,
a4,
a1,
9f,
9c,
9a,
99,
9a,
9d,
a1,
a4,
a6,
a8,
aa,
ad,
ba,
b4,
b0,
b9,
b6,
c0,
b8,
c0,
c5,
b9,
ac,
af,
b6,
ab,
a2,
ab,
a7,
a6,
a4,
a2,
9f,
9c,
9a,
99,
9a,
9d,
a1,
a4,
a6,
a8,
ab,
ad,
ae,
aa,
ae,
ad,
ae,
cb,
a8,
b6,
b1,
bc,
ba,
b3,
b4,
af,
a8,
a9,
a8,
a7,
a5,
a2,
9f,
9c,
9a,
99,
9b,
9e,
a2,
a5,
a7,
a9,
ab,
ae,
aa,
b3,
ba,
b4,
bc,
cc,
bc,
c8,
b4,
bd,
ba,
b3,
b6,
b3,
ab,
ac,
a9,
a7,
a5,
a2,
9f,
9c,
9a,
99,
9c,
a0,
a4,
a7,
a8,
aa,
ad,
af,
b1,
b3,
b4,
bb,
ae,
7c,
8d,
a2,
c4,
ba,
ae,
b0,
b7,
ad,
a5,
ae,
a8,
a7,
a5,
a1,
9e,
9b,
98,
97,
9f,
a2,
a6,
a9,
ab,
ad,
af,
b2,
b8,
ac,
ac,
c1,
74,
3,
a,
25,
74,
b0,
c9,
b3,
a9,
b2,
b0,
a4,
a7,
a6,
a3,
a0,
9c,
99,
97,
95,
a1,
a4,
a8,
ab,
ad,
af,
b1,
b4,
bf,
bb,
bb,
c0,
39,
0,
0,
19,
29,
8c,
c4,
b1,
a5,
b5,
b5,
a3,
a6,
a5,
a2,
9f,
9b,
97,
95,
93,
a2,
a5,
a9,
ac,
ae,
b0,
b3,
b5,
b1,
bd,
b6,
9c,
5,
40,
52,
82,
49,
60,
81,
a4,
b6,
aa,
a3,
b0,
a6,
a4,
a1,
9e,
9a,
96,
93,
92,
9a,
b1,
a0,
af,
bc,
a7,
b0,
b8,
6c,
34,
48,
24,
21,
4a,
7a,
97,
59,
64,
67,
7c,
a1,
ba,
9b,
b3,
a7,
a4,
a0,
9c,
99,
96,
93,
90,
a2,
b0,
b3,
9a,
a2,
cb,
b4,
72,
b,
19,
0,
3,
55,
4b,
19,
85,
5c,
23,
48,
84,
8c,
9d,
b7,
9b,
a7,
a3,
9e,
9b,
99,
98,
96,
94,
aa,
9e,
b0,
a6,
b0,
b1,
5d,
1c,
0,
e,
0,
16,
41,
37,
d,
79,
64,
4b,
39,
61,
9f,
99,
b0,
a8,
a9,
a4,
9e,
9a,
98,
97,
95,
94,
a5,
9a,
a4,
af,
a6,
59,
1,
0,
17,
4,
10,
17,
4,
1c,
28,
44,
9c,
c5,
60,
62,
bb,
a7,
9a,
af,
a8,
a4,
a0,
9c,
98,
95,
91,
8e,
9e,
a6,
a8,
9f,
58,
b,
7,
11,
f,
5,
a,
0,
17,
22,
1e,
11,
7e,
98,
4e,
88,
a3,
a5,
a8,
a1,
a2,
a0,
9e,
9d,
9a,
96,
90,
8c,
a6,
9a,
ac,
a9,
33,
0,
1a,
e,
d,
a,
14,
e,
2b,
16,
11,
d,
2a,
28,
1b,
a4,
9b,
9e,
a9,
9f,
9f,
9e,
9d,
9c,
9b,
98,
93,
8f,
a9,
95,
a5,
b2,
71,
22,
a,
3,
c,
b,
19,
21,
10,
0,
a,
f,
37,
2b,
30,
b3,
b0,
9d,
9c,
9e,
a7,
a4,
9f,
9b,
99,
97,
93,
91,
9c,
ad,
a2,
98,
b8,
7a,
5,
b,
4,
1f,
11,
1d,
17,
16,
5,
e,
4e,
2e,
43,
a7,
a0,
9c,
b1,
9e,
b4,
ad,
a4,
9b,
96,
93,
91,
8f,
a6,
a6,
9a,
a2,
a7,
82,
10,
1,
8,
11,
e,
10,
1d,
1,
4a,
1c,
67,
aa,
50,
89,
a5,
a0,
a2,
9b,
b1,
ab,
a4,
a2,
a1,
9e,
97,
91,
a4,
9f,
b0,
bf,
aa,
48,
0,
f,
7,
10,
14,
b,
12,
4b,
8f,
39,
7d,
9f,
6e,
63,
c0,
b4,
ac,
9c,
ae,
a9,
a1,
9a,
96,
95,
96,
96,
77,
77,
9b,
aa,
84,
11,
1,
18,
c,
10,
1b,
b,
0,
6f,
9d,
47,
9e,
9c,
74,
37,
a8,
c0,
ae,
9f,
b6,
aa,
9c,
95,
97,
9a,
99,
97,
76,
82,
8c,
83,
4c,
2,
d,
5,
1d,
2,
0,
c,
20,
a5,
94,
5b,
99,
b8,
9e,
63,
65,
96,
99,
a6,
90,
9f,
af,
b2,
a5,
94,
88,
83,
44,
5c,
56,
4d,
12,
7,
1d,
d,
6,
17,
1b,
16,
1d,
61,
2e,
4b,
73,
92,
79,
6f,
36,
59,
67,
4b,
3c,
6e,
a3,
ad,
8c,
63,
4e,
4c,
82,
92,
7e,
60,
10,
7,
c,
8,
b,
10,
0,
7,
70,
a7,
4a,
60,
69,
6e,
5a,
66,
43,
3f,
6c,
3a,
36,
4c,
65,
6d,
60,
4a,
37,
2e,
85,
8c,
80,
44,
a,
9,
c,
e,
c,
f,
c,
c,
83,
87,
3e,
6b,
7c,
93,
92,
92,
6e,
40,
87,
9a,
98,
8b,
7f,
81,
8b,
8f,
87,
7c,
89,
89,
80,
1e,
2,
12,
15,
9,
13,
7,
17,
1c,
8a,
62,
3b,
84,
86,
8d,
71,
82,
7b,
49,
54,
79,
6b,
6d,
6f,
6d,
6a,
69,
6c,
70,
81,
88,
7e,
68,
15,
3,
13,
e,
e,
9,
c,
4b,
90,
4d,
4b,
80,
8a,
81,
83,
7f,
86,
64,
46,
84,
83,
7f,
7b,
78,
78,
77,
77,
76,
8c,
86,
85,
8c,
3d,
10,
f,
c,
13,
c,
b,
62,
99,
56,
71,
92,
8c,
8e,
89,
83,
8b,
7c,
67,
7e,
7f,
7b,
78,
78,
78,
77,
74,
70,
86,
81,
85,
95,
4c,
1d,
13,
9,
c,
8,
15,
6e,
7b,
3c,
70,
7f,
72,
86,
85,
85,
89,
80,
68,
44,
7e,
7a,
77,
78,
7a,
79,
73,
6d,
77,
7f,
81,
80,
3a,
24,
27,
17,
5,
8,
3b,
78,
59,
37,
67,
6e,
72,
87,
86,
8f,
8b,
84,
79,
3a,
82,
7c,
77,
77,
7a,
7a,
75,
6f,
79,
80,
7f,
7a,
32,
23,
39,
3b,
11,
10,
65,
85,
63,
74,
80,
7f,
81,
83,
7a,
85,
7e,
81,
90,
67,
83,
7d,
76,
73,
75,
77,
75,
73,
83,
7a,
7a,
85,
3a,
1b,
3b,
58,
24,
19,
6a,
7f,
76,
a6,
87,
80,
81,
77,
76,
81,
79,
79,
85,
74,
80,
7b,
74,
70,
6f,
71,
73,
74,
82,
78,
78,
84,
3a,
1d,
40,
62,
2b,
27,
5a,
75,
7b,
a0,
75,
76,
83,
78,
85,
8a,
85,
84,
7a,
76,
7b,
7a,
77,
73,
6f,
6e,
71,
74,
7d,
80,
7c,
78,
32,
2a,
51,
64,
2c,
39,
57,
7c,
82,
8e,
6f,
83,
7c,
6e,
7c,
76,
7a,
86,
77,
7f,
79,
7c,
7c,
78,
72,
6f,
71,
75;
